Pressure (mbar),Distance Cycle 1 (mm),Distance Cycle 2 (mm),Distance Cycle 3 (mm),Distance Cycle 4 (mm),Distance Cycle 5 (mm),Load Cycle 1 (kg),Load Cycle 2 (kg),Load Cycle 3 (kg),Load Cycle 4 (kg),Load Cycle 5 (kg)
6000.0,238.0,239.0,239.0,240.0,240.0,24.05708460754332,23.955147808358817,23.85321100917431,24.05708460754332,24.159021406727827
5900.0,238.0,239.0,240.0,240.0,240.0,24.05708460754332,23.955147808358817,23.955147808358817,24.05708460754332,24.05708460754332
5800.0,238.0,239.0,240.0,240.0,240.0,23.955147808358817,23.955147808358817,23.955147808358817,23.955147808358817,23.955147808358817
5700.0,238.0,239.0,239.0,240.0,240.0,23.6493374108053,23.445463812436287,23.6493374108053,23.445463812436287,23.6493374108053
5600.0,237.0,238.0,238.0,238.0,239.0,23.751274209989806,23.547400611620795,23.751274209989806,23.6493374108053,23.6493374108053
5500.0,235.0,236.0,237.0,237.0,237.0,23.85321100917431,23.547400611620795,23.6493374108053,23.547400611620795,23.6493374108053
5400.0,234.0,235.0,235.0,235.0,236.0,23.6493374108053,23.547400611620795,23.751274209989806,23.6493374108053,23.547400611620795
5300.0,232.0,233.0,234.0,234.0,234.0,23.6493374108053,23.547400611620795,23.751274209989806,23.6493374108053,23.6493374108053
5200.0,231.0,232.0,232.0,232.0,233.0,23.6493374108053,23.445463812436287,23.547400611620795,23.547400611620795,23.6493374108053
5100.0,229.0,230.0,230.0,231.0,231.0,23.6493374108053,23.547400611620795,23.6493374108053,23.547400611620795,23.547400611620795
5000.0,227.0,228.0,228.0,229.0,229.0,23.751274209989806,23.547400611620795,23.547400611620795,23.6493374108053,23.547400611620795
4900.0,225.0,226.0,227.0,227.0,227.0,23.751274209989806,23.6493374108053,23.751274209989806,23.547400611620795,23.547400611620795
4800.0,223.0,224.0,225.0,225.0,225.0,23.547400611620795,23.547400611620795,23.6493374108053,23.6493374108053,23.6493374108053
4700.0,221.0,222.0,223.0,223.0,223.0,23.547400611620795,23.6493374108053,23.6493374108053,23.6493374108053,23.445463812436287
4600.0,219.0,220.0,220.0,221.0,221.0,23.547400611620795,23.547400611620795,23.547400611620795,23.6493374108053,23.547400611620795
4500.0,217.0,218.0,218.0,219.0,219.0,23.6493374108053,23.6493374108053,23.6493374108053,23.547400611620795,23.547400611620795
4400.0,214.0,215.0,216.0,216.0,217.0,23.6493374108053,23.547400611620795,23.6493374108053,23.6493374108053,23.547400611620795
4300.0,212.0,213.0,214.0,214.0,214.0,23.547400611620795,23.547400611620795,23.547400611620795,23.547400611620795,23.6493374108053
4200.0,210.0,210.0,211.0,211.0,212.0,23.6493374108053,23.547400611620795,23.6493374108053,23.547400611620795,23.6493374108053
4100.0,207.0,208.0,208.0,209.0,209.0,23.6493374108053,23.6493374108053,23.6493374108053,23.547400611620795,23.547400611620795
4000.0,204.0,205.0,206.0,206.0,207.0,23.6493374108053,23.547400611620795,23.547400611620795,23.547400611620795,23.547400611620795
3900.0,201.0,202.0,203.0,203.0,203.0,23.751274209989806,23.6493374108053,23.6493374108053,23.547400611620795,23.547400611620795
3800.0,198.0,199.0,200.0,200.0,200.0,23.6493374108053,23.6493374108053,23.547400611620795,23.6493374108053,23.85321100917431
3700.0,195.0,196.0,196.0,197.0,197.0,23.751274209989806,23.547400611620795,23.547400611620795,23.6493374108053,23.547400611620795
3600.0,191.0,192.0,193.0,193.0,194.0,23.6493374108053,23.547400611620795,23.751274209989806,23.445463812436287,23.6493374108053
3500.0,188.0,189.0,190.0,190.0,191.0,23.751274209989806,23.6493374108053,23.6493374108053,23.547400611620795,23.547400611620795
3400.0,184.0,185.0,186.0,187.0,187.0,23.6493374108053,23.6493374108053,23.751274209989806,23.6493374108053,23.547400611620795
3300.0,180.0,181.0,182.0,183.0,183.0,23.6493374108053,23.751274209989806,23.751274209989806,23.85321100917431,23.85321100917431
3200.0,176.0,177.0,178.0,178.0,179.0,23.751274209989806,23.547400611620795,23.85321100917431,23.547400611620795,23.547400611620795
3100.0,172.0,173.0,174.0,174.0,175.0,23.751274209989806,23.751274209989806,23.751274209989806,23.6493374108053,23.751274209989806
3000.0,167.0,168.0,169.0,170.0,170.0,23.6493374108053,23.547400611620795,23.751274209989806,23.751274209989806,23.751274209989806
2900.0,163.0,164.0,165.0,165.0,166.0,23.6493374108053,23.445463812436287,23.547400611620795,23.547400611620795,23.6493374108053
2800.0,158.0,159.0,160.0,160.0,161.0,23.85321100917431,23.6493374108053,23.6493374108053,23.6493374108053,23.6493374108053
2700.0,152.0,153.0,154.0,155.0,155.0,23.751274209989806,23.547400611620795,23.547400611620795,23.547400611620795,23.6493374108053
2600.0,147.0,148.0,149.0,150.0,150.0,23.6493374108053,23.6493374108053,23.751274209989806,23.445463812436287,23.547400611620795
2500.0,141.0,142.0,143.0,144.0,144.0,23.343527013251784,23.751274209989806,23.6493374108053,23.6493374108053,23.547400611620795
2400.0,135.0,136.0,137.0,138.0,138.0,23.445463812436287,23.547400611620795,23.547400611620795,23.445463812436287,23.751274209989806
2300.0,128.0,130.0,131.0,131.0,132.0,23.547400611620795,23.6493374108053,23.6493374108053,23.6493374108053,23.6493374108053
2200.0,122.0,123.0,124.0,125.0,126.0,23.547400611620795,23.547400611620795,23.547400611620795,23.343527013251784,23.547400611620795
2100.0,114.0,116.0,117.0,118.0,118.0,23.6493374108053,23.547400611620795,23.6493374108053,23.6493374108053,23.6493374108053
2000.0,107.0,109.0,110.0,110.0,111.0,23.547400611620795,23.547400611620795,23.445463812436287,23.6493374108053,23.547400611620795
1900.0,99.0,101.0,102.0,103.0,104.0,23.547400611620795,23.445463812436287,23.547400611620795,23.6493374108053,23.445463812436287
1800.0,92.0,94.0,95.0,96.0,97.0,23.6493374108053,23.6493374108053,23.6493374108053,23.6493374108053,23.547400611620795
1700.0,85.0,86.0,88.0,89.0,89.0,23.547400611620795,23.547400611620795,23.547400611620795,23.547400611620795,23.547400611620795
1600.0,77.0,79.0,80.0,81.0,81.0,23.6493374108053,23.6493374108053,23.547400611620795,23.6493374108053,23.751274209989806
1500.0,70.0,71.0,73.0,73.0,74.0,23.547400611620795,23.445463812436287,23.6493374108053,23.445463812436287,23.445463812436287
1400.0,63.0,64.0,65.0,66.0,67.0,23.445463812436287,23.445463812436287,23.751274209989806,23.547400611620795,23.751274209989806
1300.0,56.0,57.0,58.0,59.0,60.0,23.445463812436287,23.6493374108053,23.445463812436287,23.547400611620795,23.547400611620795
1200.0,50.0,51.0,52.0,53.0,53.0,23.547400611620795,23.445463812436287,23.751274209989806,23.6493374108053,23.6493374108053
1100.0,43.0,45.0,46.0,47.0,47.0,23.547400611620795,23.547400611620795,23.547400611620795,23.751274209989806,23.547400611620795
1000.0,38.0,40.0,40.0,41.0,42.0,23.547400611620795,23.547400611620795,23.751274209989806,23.547400611620795,23.445463812436287
900.0,33.0,35.0,36.0,36.0,37.0,23.6493374108053,23.445463812436287,23.445463812436287,23.547400611620795,23.547400611620795
800.0,29.0,30.0,31.0,31.0,32.0,23.6493374108053,23.6493374108053,23.85321100917431,23.6493374108053,23.6493374108053
700.0,25.0,26.0,27.0,27.0,28.0,23.547400611620795,23.547400611620795,23.547400611620795,23.751274209989806,23.6493374108053
600.0,21.0,22.0,23.0,24.0,24.0,23.445463812436287,23.6493374108053,23.445463812436287,23.547400611620795,23.547400611620795
500.0,18.0,19.0,19.0,20.0,20.0,23.6493374108053,23.751274209989806,23.6493374108053,23.547400611620795,23.6493374108053
400.0,15.0,16.0,16.0,17.0,17.0,23.445463812436287,23.547400611620795,23.547400611620795,23.6493374108053,23.6493374108053
300.0,12.0,13.0,13.0,14.0,14.0,23.6493374108053,23.6493374108053,23.6493374108053,23.6493374108053,23.6493374108053
200.0,9.0,10.0,11.0,11.0,12.0,23.6493374108053,23.547400611620795,23.547400611620795,23.547400611620795,23.547400611620795
100.0,7.0,8.0,8.0,9.0,9.0,23.6493374108053,23.6493374108053,23.547400611620795,23.445463812436287,23.547400611620795
