Pressure (mbar),Distance Cycle 1 (mm),Distance Cycle 2 (mm),Distance Cycle 3 (mm),Distance Cycle 4 (mm),Distance Cycle 5 (mm),Load Cycle 1 (kg),Load Cycle 2 (kg),Load Cycle 3 (kg),Load Cycle 4 (kg),Load Cycle 5 (kg)
6000.0,246.0,250.0,251.0,252.0,253.0,12.844036697247706,13.047910295616717,12.844036697247706,12.7420998980632,12.844036697247706
5900.0,247.0,250.0,252.0,253.0,253.0,12.945973496432211,13.047910295616717,12.945973496432211,12.7420998980632,12.945973496432211
5800.0,247.0,250.0,252.0,253.0,254.0,12.945973496432211,12.844036697247706,13.047910295616717,12.844036697247706,12.844036697247706
5700.0,247.0,250.0,251.0,252.0,253.0,12.7420998980632,12.640163098878695,12.640163098878695,12.53822629969419,12.53822629969419
5600.0,246.0,249.0,251.0,252.0,252.0,12.53822629969419,12.640163098878695,12.53822629969419,12.7420998980632,12.53822629969419
5500.0,245.0,248.0,249.0,250.0,251.0,12.53822629969419,12.436289500509684,12.436289500509684,12.53822629969419,12.53822629969419
5400.0,244.0,247.0,248.0,249.0,250.0,12.640163098878695,12.640163098878695,12.53822629969419,12.53822629969419,12.334352701325178
5300.0,243.0,246.0,247.0,248.0,249.0,12.53822629969419,12.53822629969419,12.640163098878695,12.53822629969419,12.7420998980632
5200.0,241.0,244.0,246.0,247.0,248.0,12.640163098878695,12.7420998980632,12.334352701325178,12.436289500509684,12.640163098878695
5100.0,240.0,243.0,245.0,246.0,247.0,12.640163098878695,12.53822629969419,12.53822629969419,12.334352701325178,12.53822629969419
5000.0,239.0,242.0,243.0,244.0,245.0,12.7420998980632,12.640163098878695,12.53822629969419,12.436289500509684,12.334352701325178
4900.0,237.0,241.0,242.0,243.0,244.0,12.53822629969419,12.436289500509684,12.53822629969419,12.436289500509684,12.53822629969419
4800.0,236.0,239.0,240.0,242.0,242.0,12.640163098878695,12.436289500509684,12.436289500509684,12.53822629969419,12.53822629969419
4700.0,234.0,237.0,239.0,240.0,241.0,12.53822629969419,12.53822629969419,12.436289500509684,12.334352701325178,12.436289500509684
4600.0,233.0,236.0,237.0,238.0,239.0,12.436289500509684,12.436289500509684,12.334352701325178,12.640163098878695,12.640163098878695
4500.0,231.0,234.0,236.0,237.0,238.0,12.53822629969419,12.53822629969419,12.436289500509684,12.640163098878695,12.436289500509684
4400.0,229.0,232.0,234.0,235.0,236.0,12.53822629969419,12.53822629969419,12.53822629969419,12.53822629969419,12.53822629969419
4300.0,227.0,231.0,232.0,233.0,234.0,12.53822629969419,12.53822629969419,12.436289500509684,12.436289500509684,12.53822629969419
4200.0,225.0,229.0,230.0,231.0,232.0,12.53822629969419,12.53822629969419,12.436289500509684,12.436289500509684,12.640163098878695
4100.0,223.0,226.0,228.0,229.0,230.0,12.53822629969419,12.53822629969419,12.53822629969419,12.53822629969419,12.53822629969419
4000.0,221.0,224.0,226.0,227.0,228.0,12.436289500509684,12.436289500509684,12.436289500509684,12.53822629969419,12.334352701325178
3900.0,219.0,222.0,224.0,225.0,226.0,12.640163098878695,12.53822629969419,12.436289500509684,12.436289500509684,12.436289500509684
3800.0,217.0,220.0,221.0,223.0,224.0,12.53822629969419,12.53822629969419,12.640163098878695,12.53822629969419,12.53822629969419
3700.0,214.0,217.0,219.0,220.0,221.0,12.53822629969419,12.53822629969419,12.53822629969419,12.436289500509684,12.334352701325178
3600.0,211.0,215.0,216.0,218.0,219.0,12.640163098878695,12.436289500509684,12.53822629969419,12.436289500509684,12.436289500509684
3500.0,209.0,212.0,214.0,215.0,216.0,12.53822629969419,12.436289500509684,12.53822629969419,12.53822629969419,12.53822629969419
3400.0,206.0,209.0,211.0,212.0,213.0,12.640163098878695,12.640163098878695,12.53822629969419,12.53822629969419,12.436289500509684
3300.0,203.0,206.0,208.0,209.0,210.0,12.53822629969419,12.640163098878695,12.53822629969419,12.334352701325178,12.436289500509684
3200.0,200.0,203.0,205.0,206.0,207.0,12.53822629969419,12.436289500509684,12.640163098878695,12.436289500509684,12.436289500509684
3100.0,196.0,200.0,201.0,203.0,204.0,12.640163098878695,12.436289500509684,12.53822629969419,12.436289500509684,12.53822629969419
3000.0,192.0,196.0,198.0,199.0,200.0,12.640163098878695,12.436289500509684,12.436289500509684,12.53822629969419,12.436289500509684
2900.0,189.0,192.0,194.0,196.0,197.0,12.53822629969419,12.53822629969419,12.436289500509684,12.53822629969419,12.53822629969419
2800.0,184.0,188.0,190.0,192.0,193.0,12.53822629969419,12.53822629969419,12.53822629969419,12.436289500509684,12.53822629969419
2700.0,180.0,184.0,186.0,187.0,189.0,12.53822629969419,12.640163098878695,12.436289500509684,12.53822629969419,12.436289500509684
2600.0,175.0,180.0,182.0,183.0,184.0,12.436289500509684,12.334352701325178,12.640163098878695,12.436289500509684,12.640163098878695
2500.0,171.0,175.0,177.0,178.0,179.0,12.436289500509684,12.53822629969419,12.436289500509684,12.436289500509684,12.436289500509684
2400.0,165.0,169.0,172.0,173.0,175.0,12.53822629969419,12.53822629969419,12.53822629969419,12.53822629969419,12.436289500509684
2300.0,160.0,164.0,166.0,168.0,169.0,12.53822629969419,12.640163098878695,12.436289500509684,12.436289500509684,12.334352701325178
2200.0,154.0,158.0,160.0,162.0,163.0,12.436289500509684,12.436289500509684,12.436289500509684,12.436289500509684,12.53822629969419
2100.0,147.0,152.0,154.0,156.0,157.0,12.53822629969419,12.53822629969419,12.53822629969419,12.436289500509684,12.436289500509684
2000.0,140.0,145.0,147.0,149.0,151.0,12.53822629969419,12.53822629969419,12.53822629969419,12.334352701325178,12.436289500509684
1900.0,133.0,138.0,140.0,142.0,144.0,12.53822629969419,12.436289500509684,12.53822629969419,12.53822629969419,12.334352701325178
1800.0,125.0,130.0,133.0,135.0,137.0,12.53822629969419,12.53822629969419,12.436289500509684,12.334352701325178,12.53822629969419
1700.0,117.0,122.0,125.0,127.0,129.0,12.53822629969419,12.53822629969419,12.640163098878695,12.436289500509684,12.436289500509684
1600.0,108.0,114.0,116.0,119.0,120.0,12.53822629969419,12.334352701325178,12.436289500509684,12.334352701325178,12.53822629969419
1500.0,100.0,104.0,107.0,110.0,112.0,12.436289500509684,12.53822629969419,12.53822629969419,12.334352701325178,12.334352701325178
1400.0,90.0,95.0,98.0,101.0,102.0,12.334352701325178,12.53822629969419,12.53822629969419,12.436289500509684,12.53822629969419
1300.0,80.0,85.0,88.0,91.0,93.0,12.640163098878695,12.640163098878695,12.436289500509684,12.53822629969419,12.436289500509684
1200.0,71.0,76.0,79.0,81.0,83.0,12.436289500509684,12.53822629969419,12.640163098878695,12.334352701325178,12.130479102956167
1100.0,62.0,67.0,70.0,72.0,74.0,12.53822629969419,12.436289500509684,12.436289500509684,12.53822629969419,12.53822629969419
1000.0,54.0,58.0,61.0,63.0,65.0,12.53822629969419,12.436289500509684,12.53822629969419,12.640163098878695,12.436289500509684
900.0,46.0,50.0,53.0,55.0,56.0,12.53822629969419,12.640163098878695,12.53822629969419,12.640163098878695,12.436289500509684
800.0,39.0,43.0,45.0,47.0,49.0,12.53822629969419,12.436289500509684,12.640163098878695,12.53822629969419,12.53822629969419
700.0,33.0,37.0,39.0,40.0,42.0,12.640163098878695,12.436289500509684,12.53822629969419,12.436289500509684,12.334352701325178
600.0,28.0,30.0,32.0,34.0,35.0,12.436289500509684,12.53822629969419,12.436289500509684,12.53822629969419,12.53822629969419
500.0,23.0,25.0,27.0,28.0,29.0,12.334352701325178,12.334352701325178,12.640163098878695,12.436289500509684,12.436289500509684
400.0,18.0,20.0,22.0,23.0,24.0,12.53822629969419,12.436289500509684,12.53822629969419,12.53822629969419,12.436289500509684
300.0,14.0,16.0,17.0,18.0,19.0,12.436289500509684,12.334352701325178,12.436289500509684,12.53822629969419,12.436289500509684
200.0,11.0,12.0,14.0,14.0,15.0,12.334352701325178,12.334352701325178,12.334352701325178,12.436289500509684,12.436289500509684
100.0,7.0,9.0,10.0,11.0,11.0,12.436289500509684,12.436289500509684,12.53822629969419,12.436289500509684,12.334352701325178
